time	temp	oxy	light
1530230700	10.76574	9.082771	4209.3491
1530231000	10.729704	9.073167	2578.9313
1530231300	10.702663	9.075242	2999.3535
1530231600	10.675612	9.077327	3158.2936
1530231900	10.657571	9.068846	3896.596
1530232200	10.639526	9.075181	4055.5361
1530232500	10.630501	9.085765	4086.2987
1530232800	10.621475	9.08894	3799.1811
1530233100	10.603419	9.080461	3312.1066
1530233400	10.576326	9.082579	2261.0511
1530233700	10.549222	9.05511	1215.1227
1530234000	10.504023	9.048828	763.9379
1530234300	10.458791	9.049955	799.8276
1530234600	10.422583	9.047925	763.9379
1530234900	10.386354	9.053287	774.1921
1530235200	10.359169	9.040732	799.8276
1530235500	10.331972	9.050298	799.8276
1530235800	10.304764	9.03777	794.7005
1530236100	10.277543	9.062099	830.5902
1530236400	10.250311	9.064326	835.7173
1530236700	10.223067	9.066563	830.5902
1530237000	10.195811	9.068809	804.9547
1530237300	10.159451	9.066896	779.3192
1530237600	10.123069	9.079771	687.0314
1530237900	10.095769	9.082053	640.8875
1530238200	10.068457	9.084345	712.6669
1530238500	10.032021	9.089881	707.5398
1530238800	10.004681	9.107004	589.6165
1530239100	9.986447	9.106084	481.9474
1530239400	9.959085	9.101009	517.8371
1530239700	9.931712	9.110759	604.9978
1530240000	9.904326	9.120527	604.9978
1530240300	9.886062	9.119629	492.2016
1530240600	9.858655	9.114583	389.6596
1530240900	9.840377	9.128531	384.5325
1530241200	9.81295	9.138346	522.9642
1530241500	9.78551	9.140743	569.1081
1530241800	9.767209	9.147304	533.2184
1530242100	9.748903	9.146434	528.0913
1530242400	9.721434	9.148855	507.5829
1530242700	9.703114	9.147996	369.1512
1530243000	9.675623	9.157874	287.1176
1530243300	9.648119	9.145446	271.7363
1530243600	9.629777	9.159479	215.3382
1530243900	9.602252	9.169392	164.0672
1530244200	9.583895	9.176011	133.3046
1530244500	9.556348	9.178495	107.6691
1530244800	9.537977	9.18513	92.2878
1530245100	9.510409	9.180171	76.9065
1530245400	9.492023	9.186817	56.3981
1530245700	9.464433	9.189336	25.6355
1530246000	9.446033	9.181074	10.2542
1530246300	9.418421	9.198534	10.2542
1530246600	9.400006	9.19774	0
1530246900	9.372372	9.200293	0
1530247200	9.353942	9.206983	0
1530247500	9.326287	9.194614	0
1530247800	9.298617	9.212134	0
1530248100	9.270935	9.229697	0
1530248400	9.252472	9.221447	0
1530248700	9.224768	9.224057	0
1530249000	9.197049	9.219194	0
1530249300	9.178563	9.240918	0
1530249600	9.150822	9.236061	0
1530249900	9.123067	9.23871	0
1530250200	9.104556	9.24548	0
1530250500	9.076779	9.255651	0
1530250800	9.048988	9.265843	0
1530251100	9.030453	9.265131	0
1530251400	9.011912	9.279462	0
1530251700	8.984088	9.274645	0
1530252000	8.956251	9.299959	0
1530252300	8.9284	9.310237	0
1530252600	8.900535	9.305432	0
1530252900	8.88195	9.29721	0
1530253200	8.854061	9.315058	0
1530253500	8.826159	9.325387	0
1530253800	8.816855	9.328834	0
1530254100	8.788933	9.331622	0
1530254400	8.760997	9.349565	0
1530254700	8.742366	9.341338	0
1530255000	8.723728	9.348265	0
1530255300	8.695759	9.36626	0
1530255600	8.677105	9.358035	0
1530255900	8.658444	9.357403	0
1530256200	8.639777	9.356776	0
1530256500	8.611765	9.367221	0
1530256800	8.602424	9.385903	0
1530257100	8.583738	9.392893	0
1530257400	8.555697	9.403395	0
1530257700	8.536995	9.387567	0
1530258000	8.518286	9.394573	0
1530258300	8.49957	9.393977	0
1530258600	8.480848	9.393385	0
1530258900	8.452753	9.419167	0
1530259200	8.434015	9.426215	0
1530259500	8.41527	9.425636	0
1530259800	8.387141	9.428593	0
1530260100	8.368379	9.443306	0
1530260400	8.349612	9.442742	0
1530260700	8.330837	9.44983	0
1530261000	8.302663	9.452825	0
1530261300	8.283871	9.459931	0
1530261600	8.255672	9.44764	0
1530261900	8.236864	9.470071	0
1530262200	8.218049	9.454223	0
1530262500	8.189815	9.480248	0
1530262800	8.170983	9.479726	0
1530263100	8.152145	9.486883	0
1530263400	8.123874	9.497635	0
1530263700	8.105019	9.497128	0
1530264000	8.086157	9.504313	0
1530264300	8.057851	9.515108	0
1530264600	8.038972	9.514616	0
1530264900	8.01064	9.525439	0
1530265200	8.001193	9.521346	0
1530265500	7.982293	9.536284	0
1530265800	7.963386	9.535809	0
1530266100	7.935013	9.538964	0
1530266400	7.916088	9.561673	0
1530266700	7.897157	9.561213	0
1530267000	7.878219	9.55303	0
1530267300	7.859274	9.560309	0
1530267600	7.830843	9.578988	0
1530267900	7.811881	9.578549	0
1530268200	7.802397	9.589955	0
1530268500	7.783424	9.581773	0
1530268800	7.764443	9.581346	0
1530269100	7.754951	9.600518	0
1530269400	7.73596	9.607861	0
1530269700	7.716962	9.591925	0
1530270000	7.697957	9.607033	0
1530270300	7.678944	9.606627	0
1530270600	7.659925	9.606226	0
1530270900	7.640898	9.621368	0
1530271200	7.621865	9.620976	0
1530271500	7.602824	9.63615	0
1530271800	7.583776	9.635766	0
1530272100	7.564721	9.627606	0
1530272400	7.545658	9.635014	0
1530272700	7.536124	9.646513	0
1530273000	7.517051	9.646146	10.2542
1530273300	7.49797	9.669192	15.3813
1530273600	7.488427	9.665107	25.6355
1530273900	7.469335	9.680379	51.271
1530274200	7.459787	9.668479	71.7794
1530274500	7.440684	9.668131	87.1607
1530274800	7.421574	9.6756	97.4149
1530275100	7.412017	9.68716	138.4317
1530275400	7.402457	9.690904	184.5756
1530275700	7.383333	9.698399	235.8466
1530276000	7.364201	9.698069	281.9905
1530276300	7.354632	9.709662	251.2279
1530276600	7.345061	9.729126	230.7195
1530276900	7.335489	9.725035	266.6092
1530277200	7.316339	9.724714	348.6428
1530277500	7.306761	9.728484	471.6932
1530277800	7.297181	9.732256	625.5062
1530278100	7.287599	9.759651	820.336
1530278400	7.287599	9.743897	810.0818
1530278700	7.278015	9.755554	733.1753
1530279000	7.278015	9.747678	661.3959
1530279300	7.26843	9.75934	845.9715
1530279600	7.26843	9.77512	815.2089
1530279900	7.258843	9.778914	1086.9452
1530280200	7.258843	9.763128	1040.8013
1530280500	7.258843	9.778914	892.1154
1530280800	7.258843	9.786817	892.1154
1530281100	7.258843	9.778914	1004.9116
1530281400	7.26843	9.798841	928.0051
1530281700	7.26843	9.78302	943.3864
1530282000	7.26843	9.790927	1112.5807
1530282300	7.26843	9.798841	1399.6983
1530282600	7.278015	9.802959	1625.2907
1530282900	7.297181	9.787447	2102.111
1530283200	7.306761	9.79948	2614.821
1530283500	7.316339	9.811531	2440.4996
1530283800	7.335489	9.811863	1707.3243
1530284100	7.354632	9.820136	1117.7078
1530284400	7.373768	9.812543	1086.9452
1530284700	7.383333	9.800823	1153.5975
1530285000	7.402457	9.769528	1338.1731
1530285300	7.421574	9.785689	1184.3601
1530285600	7.440684	9.778138	1045.9284
1530285900	7.469335	9.782639	1010.0387
1530286200	7.49797	9.771337	979.2761
1530286500	7.526588	9.752168	1148.4704
1530286800	7.545658	9.744668	1061.3097
1530287100	7.583776	9.73757	1179.233
1530287400	7.602824	9.761631	1066.4368
1530287700	7.631383	9.742516	1076.691
1530288000	7.669436	9.743345	1097.1994
1530288300	7.688451	9.728011	1158.7246
1530288600	7.716962	9.73259	1358.6815
1530288900	7.754951	9.725589	1353.5544
1530289200	7.792911	9.726483	1276.6479
1530289500	7.840322	9.715823	1235.6311
1530289800	7.887689	9.713067	1445.8422
1530290100	7.935013	9.694625	1517.6216
1530290400	7.97284	9.68776	2696.8546
1530290700	8.020086	9.677252	2507.1519
1530291000	8.067288	9.666783	2958.3367
1530291300	8.114448	9.648532	1763.7224
1530291600	8.1804	9.64651	1948.298
1530291900	8.255672	9.633111	1789.3579
1530292200	8.340225	9.616196	2409.737
1530292500	8.434015	9.611395	8649.4177
1530292800	8.555697	9.580422	6296.0788
1530293100	8.695759	9.589261	22400.2999
1530293400	8.854061	9.567959	3373.6318
1530293700	8.984088	9.534262	3389.0131
1530294000	9.123067	9.536124	3845.325
1530294300	9.187807	9.488573	5439.8531
1530294600	9.307842	9.520923	6870.314
1530294900	9.372372	9.465859	6337.0956
1530295200	9.409214	9.467541	13735.5009
1530295500	9.574714	9.467634	42011.4574
1530295800	9.739748	9.429569	7670.1416
1530296100	9.730592	9.417581	7018.9999
1530296400	9.684788	9.396134	8075.1825
1530296700	9.657289	9.421621	6096.1219
1530297000	9.629777	9.401105	5383.455
1530297300	9.620603	9.396832	7777.8107
1530297600	9.629777	9.401105	18826.7112
1530297900	9.712274	9.416665	14458.422
1530298200	9.739748	9.398864	12751.0977
1530298500	9.78551	9.428047	10161.9122
1530298800	9.794658	9.401637	8931.4082
1530299100	9.81295	9.394906	6075.6135
1530299400	9.81295	9.371952	5255.2775
1530299700	9.803804	9.375308	4152.951
1530300000	9.78551	9.382028	5306.5485
1530300300	9.78551	9.374382	7300.9904
1530300600	9.794658	9.378667	10459.284
1530300900	9.822093	9.376239	12346.0568
1530301200	9.876928	9.386715	17929.4687
1530301500	9.940838	9.378582	39852.9483
1530301800	10.041132	9.372474	27189.0113
1530302100	10.141262	9.351212	10828.4352
1530302400	10.177633	9.337973	25476.5599
1530302700	10.232149	9.333412	44626.2784
1530303000	10.304764	9.337561	10951.4856
1530303300	10.250311	9.288811	8618.6551
1530303600	10.268467	9.274677	7224.0839
1530303900	10.286618	9.275703	4722.0591
1530304200	10.277543	9.241178	6675.4842
1530304500	10.268467	9.274677	10120.8954
1530304800	10.313835	9.273463	12376.8194
1530305100	10.377294	9.296082	9341.5762
1530305400	10.377294	9.265751	15970.9165
1530305700	10.458791	9.297078	14202.067
1530306000	10.46784	9.286221	21610.7265
1530306300	10.549222	9.302515	10361.8691
1530306600	10.630501	9.265716	9013.4418
1530306900	10.558258	9.246179	8090.5638
1530307200	10.540185	9.237539	14114.9063
1530307500	10.513065	9.232149	7254.8465
1530307800	10.476888	9.222472	7147.1774
1530308100	10.46784	9.225709	7582.9809
1530308400	10.46784	9.218176	7003.6186
1530308700	10.46784	9.218176	8403.3169
1530309000	10.485934	9.226773	8034.1657
1530309300	10.494979	9.216005	7480.4389
1530309600	10.504023	9.227841	8393.0627
1530309900	10.522106	9.213845	8459.715
1530310200	10.540185	9.214919	7449.6763
1530310500	10.540185	9.214919	6783.1533
1530310800	10.540185	9.214919	5624.4287
1530311100	10.522106	9.20632	5080.9561
1530311400	10.504023	9.182723	4117.0613
1530311700	10.476888	9.162417	4675.9152
1530312000	10.449741	9.194565	4101.68
1530312300	10.431637	9.17103	2543.0416
1530312600	10.404471	9.165734	1789.3579
1530312900	10.386354	9.157229	2066.2213
1530313200	10.359169	9.15943	2230.2885
1530313500	10.341039	9.150945	3071.1329
1530313800	10.331972	9.154171	2891.6844
1530314100	10.313835	9.160629	4147.8239
1530314400	10.313835	9.190569	5070.7019
1530314700	10.313835	9.198071	5393.7092
1530315000	10.313835	9.198071	4886.1263
1530315300	10.313835	9.213095	4101.68
1530315600	10.304764	9.186314	5496.2512
1530315900	10.304764	9.201315	5798.7501
1530316200	10.313835	9.205579	5219.3878
1530316500	10.322904	9.202334	4086.2987
1530316800	10.322904	9.194828	4101.68
1530317100	10.331972	9.18409	4711.8049
1530317400	10.341039	9.188348	4809.2198
1530317700	10.359169	9.181877	4434.9415
1530318000	10.368232	9.178644	3424.9028
1530318300	10.377294	9.16793	2291.8137
1530318600	10.368232	9.148739	1712.4514
1530318900	10.359169	9.144499	1333.046
1530319200	10.341039	9.128584	1953.4251
1530319500	10.331972	9.131802	1999.569
1530319800	10.331972	9.124359	1820.1205
1530320100	10.331972	9.124359	2220.0343
1530320400	10.322904	9.120139	1286.9021
1530320700	10.304764	9.096867	712.6669
1530321000	10.286618	9.088468	651.1417
1530321300	10.25939	9.098104	656.2688
1530321600	10.241231	9.097124	635.7604
1530321900	10.213983	9.091959	620.3791
1530322200	10.195811	9.090991	615.252
1530322500	10.177633	9.090028	620.3791
1530322800	10.150357	9.092292	635.7604
1530323100	10.141262	9.095518	707.5398
1530323400	10.11397	9.112623	610.1249
1530323700	10.10487	9.108439	671.6501
1530324000	10.077562	9.125579	553.7268
1530324300	10.05935	9.109793	507.5829
1530324600	10.032021	9.112101	502.4558
1530324900	10.004681	9.107004	497.3287
1530325200	9.986447	9.120916	481.9474
1530325500	9.968207	9.127422	471.6932
1530325800	9.949962	9.133936	466.5661
1530326100	9.931712	9.133023	451.1848
1530326400	9.913456	9.132115	440.9306
1530326700	9.895194	9.123787	425.5493
1530327000	9.876928	9.130314	399.9138
1530327300	9.858655	9.136849	374.2783
1530327600	9.831236	9.1318	348.6428
1530327900	9.822093	9.157389	328.1344
1530328200	9.794658	9.152339	323.0073
1530328500	9.77636	9.158906	276.8634
1530328800	9.758057	9.150588	266.6092
1530329100	9.730592	9.160451	246.1008
1530329400	9.712274	9.159587	251.2279
1530329700	9.693951	9.173632	256.355
1530330000	9.666456	9.183539	179.4485
1530330300	9.648119	9.175225	123.0504
1530330600	9.629777	9.166926	107.6691
1530330900	9.611428	9.173537	87.1607
1530331200	9.593074	9.180157	82.0336
1530331500	9.565532	9.182639	51.271
1530331800	9.537977	9.192596	41.0168
1530332100	9.5196	9.191774	30.7626
1530332400	9.501217	9.190956	15.3813
1530332700	9.473631	9.20842	5.1271
1530333000	9.455234	9.207611	5.1271
1530333300	9.43683	9.199332	0
1530333600	9.409214	9.201872	0
1530333900	9.381585	9.211899	0
1530334200	9.353942	9.229437	0
1530334500	9.335507	9.228654	0
1530334800	9.317065	9.227876	0
1530335100	9.289391	9.23796	0
1530335400	9.261704	9.255575	0
1530335700	9.243239	9.247301	0
1530336000	9.21553	9.249918	0
1530336300	9.187807	9.267577	0
1530336600	9.169317	9.274354	0
1530336900	9.150822	9.266086	0
1530337200	9.123067	9.26874	0
1530337500	9.095299	9.286463	0
1530337800	9.067517	9.289141	0
1530338100	9.048988	9.28842	0
1530338400	9.021183	9.291115	0
1530338700	9.002639	9.313042	0
1530339000	8.984088	9.327456	0
1530339300	8.956251	9.322616	0
1530339600	8.937685	9.329482	0
1530339900	8.909825	9.324659	0
1530340200	8.891243	9.323972	0
1530340500	8.872655	9.32329	0
1530340800	8.844762	9.356355	0
1530341100	8.816855	9.359138	0
1530341400	8.807549	9.347427	0
1530341700	8.779623	9.380596	0
1530342000	8.751682	9.368204	0
1530342300	8.733047	9.367551	0
1530342600	8.714406	9.382101	0
1530342900	8.686432	9.392548	0
1530343200	8.667775	9.384298	0
1530343500	8.649111	9.391272	0
1530343800	8.621104	9.394135	0
1530344100	8.611765	9.397629	0
1530344400	8.583738	9.400507	0
1530344700	8.555697	9.411017	0
1530345000	8.536995	9.418036	0
1530345300	8.518286	9.417431	0
1530345600	8.49021	9.427982	0
1530345900	8.471485	9.435028	0
1530346200	8.443385	9.430324	0
1530346500	8.434015	9.449147	0
1530346800	8.405895	9.459762	0
1530347100	8.377761	9.478072	0
1530347400	8.358996	9.469826	0
1530347700	8.340225	9.461595	0
1530348000	8.321447	9.461035	0
1530348300	8.293268	9.479373	0
1530348600	8.283871	9.490618	0
1530348900	8.255672	9.478279	0
1530349200	8.236864	9.493097	0
1530349500	8.218049	9.500248	0
1530349800	8.189815	9.503296	0
1530350100	8.170983	9.510466	0
1530350400	8.152145	9.525352	0
1530350700	8.1333	9.517127	0
1530351000	8.105019	9.527919	0
1530351300	8.086157	9.512006	0
1530351600	8.067288	9.550069	0
1530351900	8.048412	9.534127	0
1530352200	8.020086	9.544968	0
1530352500	8.01064	9.540864	0
1530352800	7.982293	9.559456	0
1530353100	7.963386	9.566715	0
1530353400	7.944472	9.573984	0
1530353700	7.925551	9.573514	0
1530354000	7.906624	9.57305	0
1530354300	7.887689	9.572591	0
1530354600	7.859274	9.591285	0
1530354900	7.840322	9.598597	0
1530355200	7.811881	9.594052	0
1530355500	7.802397	9.605478	0
1530355800	7.783424	9.597279	0
1530356100	7.754951	9.623835	0
1530356400	7.745456	9.611957	0
1530356700	7.726462	9.619311	0
1530357000	7.70746	9.626674	0
1530357300	7.697957	9.638149	0
1530357600	7.669436	9.618079	0
1530357900	7.659925	9.629546	0
1530358200	7.631383	9.648427	0
1530358500	7.612345	9.648033	0
1530358800	7.593301	9.663253	0
1530359100	7.583776	9.666966	0
1530359400	7.564721	9.650972	5.1271
1530359700	7.536124	9.669926	10.2542
1530360000	7.526588	9.673648	15.3813
1530360300	7.517051	9.677373	30.7626
1530360600	7.49797	9.684831	46.1439
1530360900	7.478882	9.684469	71.7794
1530361200	7.459787	9.699776	92.2878
1530361500	7.440684	9.699424	143.5588
1530361800	7.43113	9.703168	174.3214
1530362100	7.421574	9.714762	215.3382
1530362400	7.402457	9.73013	240.9737
1530362700	7.392896	9.733891	297.3718
1530363000	7.383333	9.729789	358.897
1530363300	7.373768	9.733553	440.9306
1530363600	7.364201	9.753067	594.7436
1530363900	7.354632	9.748961	722.9211
1530364200	7.354632	9.756841	722.9211
1530364500	7.345061	9.768509	907.4967
1530364800	7.354632	9.764729	835.7173
1530365100	7.354632	9.772623	1251.0124
1530365400	7.354632	9.764729	1338.1731
1530365700	7.364201	9.792559	1338.1731
1530366000	7.373768	9.796689	1461.2235
1530366300	7.383333	9.792902	1476.6048
1530366600	7.392896	9.789118	1574.0197
1530366900	7.412017	9.789469	1717.5785
1530367200	7.421574	9.793605	1676.5617
1530367500	7.43113	9.797745	1563.7655
1530367800	7.440684	9.793964	871.607
1530368100	7.450236	9.790187	1450.9693
1530368400	7.469335	9.782639	1984.1877
1530368700	7.488427	9.783011	1158.7246
1530369000	7.49797	9.763438	763.9379
1530369300	7.49797	9.763438	681.9043
1530369600	7.507511	9.75179	692.1585
1530369900	7.517051	9.763816	784.4463
1530370200	7.526588	9.760059	840.8444
1530370500	7.545658	9.768342	835.7173
1530370800	7.545658	9.760443	871.607
1530371100	7.564721	9.752941	902.3696
1530371400	7.583776	9.76913	928.0051
1530371700	7.593301	9.757482	938.2593
1530372000	7.612345	9.749994	1056.1826
1530372300	7.631383	9.742516	1333.046
1530372600	7.650413	9.750815	2337.9576
1530372900	7.678944	9.763291	2958.3367
1530373200	7.697957	9.787462	3327.4879
1530373500	7.745456	9.784603	3532.5719
1530373800	7.773934	9.7734	2517.4061
1530374100	7.802397	9.778047	3409.5215
1530374400	7.830843	9.774787	3194.1833
1530374700	7.868748	9.75991	2948.0825
1530375000	7.906624	9.752973	4009.3922
1530375300	7.944472	9.753961	3419.7757
1530375600	7.991744	9.751273	4937.3973
1530375900	8.048412	9.760746	7111.2877
1530376200	8.105019	9.754444	7762.4294
1530376500	8.170983	9.752425	7757.3023
1530376800	8.236864	9.766312	8377.6814
1530377100	8.293268	9.744322	8598.1467
1530377400	8.358996	9.742482	7249.7194
1530377700	8.41527	9.728528	8054.6741
1530378000	8.49021	9.723174	6952.3476
1530378300	8.555697	9.713619	6670.3571
1530378600	8.621104	9.688366	7162.5587
1530378900	8.667775	9.678264	6065.3593
1530379200	8.714406	9.636813	3983.7567
1530379500	8.733047	9.629678	3717.1475
1530379800	8.770311	9.615435	5424.4718
1530380100	8.798242	9.589177	7018.9999
1530380400	8.835461	9.598401	6116.6303
1530380700	8.872655	9.592046	5614.1745
1530381000	8.956251	9.59147	5993.5799
1530381300	9.123067	9.606245	5424.4718
1530381600	9.289391	9.574534	13453.5104
1530381900	9.464433	9.58661	15458.2065
1530382200	9.473631	9.536366	30916.413
1530382500	9.473631	9.528595	30936.9214
1530382800	9.492023	9.513947	17360.3606
1530383100	9.501217	9.518265	14489.1846
1530383400	9.5196	9.503639	12884.4023
1530383700	9.556348	9.482193	11741.059
1530384000	9.602252	9.48056	10515.6821
1530384300	9.629777	9.470323	7147.1774
1530384600	9.638949	9.45149	8967.2979
1530384900	9.648119	9.44039	8854.5017
1530385200	9.666456	9.456703	10515.6821
1530385500	9.693951	9.438812	8813.4849
1530385800	9.712274	9.462853	9249.2884
1530386100	9.730592	9.440649	8972.425
1530386400	9.730592	9.456062	9003.1876
1530386700	9.730592	9.440649	8023.9115
1530387000	9.739748	9.444963	8664.799
1530387300	9.748903	9.426186	8213.6142
1530387600	12.077167	9.081846	1168.9788
1530387900	13.947858	8.604732	820.336
