time	temp	oxy	light
1500513420	12.341944	8.299179	1607.85856
1500514020	12.333133	8.295167	1498.65133
1500514620	12.333133	8.295167	1405.33811
1500515220	12.315507	8.293918	1318.17741
1500515820	12.306692	8.289912	1223.83877
1500516420	12.297877	8.299443	1112.06799
1500517020	12.280243	8.2982	1058.74615
1500517620	12.271425	8.287432	1007.98786
1500518220	12.253785	8.279442	1090.02146
1500518820	12.236142	8.291729	928.51781
1500519420	12.218494	8.304036	708.05251
1500520020	12.200842	8.302808	557.82848
1500520620	12.174357	8.311135	456.82461
1500521220	12.156695	8.296372	362.48597
1500521820	12.13903	8.301925	261.4821
1500522420	12.12136	8.314262	158.9401
1500523020	12.103686	8.306275	81.52089
1500523620	12.077167	8.321411	32.81344
1500524220	12.059483	8.313427	6.15252
1500524820	12.032949	8.321801	0
1500525420	12.015255	8.320606	0
1500526020	11.988705	8.328997	0
1500526620	11.962147	8.3442	0
1500527220	11.935579	8.345823	0
1500527820	11.909001	8.354258	0
1500528420	11.87355	8.358715	0
1500529020	11.84695	8.374	0
1500529620	11.820341	8.368836	0
1500530220	11.793723	8.390986	0
1500530820	11.767094	8.392662	0
1500531420	11.731575	8.397187	0
1500532020	11.704924	8.412576	0
1500532620	11.678264	8.434868	0
1500533220	11.651593	8.429711	0
1500533820	11.624913	8.424568	0
1500534420	11.589324	8.436028	0
1500535020	11.562621	8.451521	0
1500535620	11.535908	8.460157	0
1500536220	11.500275	8.4648	0
1500536820	11.473539	8.473464	0
1500537420	11.446792	8.495971	0
1500538020	11.420036	8.497758	0
1500538620	11.393269	8.499554	0
1500539220	11.357564	8.518127	0
1500539820	11.330774	8.526883	0
1500540420	11.303973	8.528709	0
1500541020	11.268222	8.519591	0
1500541620	11.241397	8.549222	0
1500542220	11.214562	8.55804	0
1500542820	11.187716	8.566874	0
1500543420	11.16086	8.575724	0
1500544020	11.133993	8.577607	0
1500544620	11.098155	8.603436	0
1500545220	11.071263	8.591347	0
1500545820	11.044361	8.600254	0
1500546420	11.017448	8.623199	0
1500547020	10.990525	8.618116	0
1500547620	10.963591	8.620055	0
1500548220	10.936646	8.643072	0
1500548820	10.90969	8.630979	0
1500549420	10.882723	8.647	0
1500550020	10.855745	8.670108	0
1500550620	10.828757	8.672096	0
1500551220	10.801757	8.674093	0
1500551820	10.774746	8.683158	0
1500552420	10.756733	8.69628	3.58897
1500553020	10.729704	8.698302	19.48298
1500553620	10.702663	8.707411	57.93623
1500554220	10.675612	8.716537	139.96983
1500554820	10.648549	8.739883	240.9737
1500555420	10.621475	8.73484	357.87158
1500556020	10.603419	8.740956	513.22271
1500556620	10.576326	8.764385	714.71774
1500557220	10.558258	8.77053	894.16624
1500557820	10.540185	8.776682	982.86507
1500558420	10.531146	8.772626	1096.68669
1500559020	10.522106	8.789987	1360.73234
1500559620	10.513065	8.800225	1649.90078
1500560220	10.504023	8.810477	1661.1804
1500560820	10.513065	8.807386	1705.78617
1500561420	10.522106	8.818629	2089.80596
1500562020	10.531146	8.815536	2262.07652
1500562620	10.549222	8.816526	2770.17213
1500563220	10.585358	8.832881	3188.54349
1500563820	10.612448	8.830796	5408.06508
1500564420	10.639526	8.83591	6221.22314
1500565020	10.657571	8.829737	5073.44665
1500565620	10.693647	8.860601	4670
1500566220	10.711678	8.847213	5408.11258
1500566820	10.738715	8.837966	5571.61957
1500567420	10.756733	8.839007	6961.57638
1500568020	10.783751	8.829781	5641.34813
1500568620	10.810758	8.813389	5616.73805
1500569220	10.84675	8.815498	5417.29386
1500569820	10.891713	8.843353	5147.6084
1500570420	10.936646	8.849663	5957.6902
1500571020	10.97257	8.851846	9760.46027
1500571620	10.95461	8.850752	12340.41699
1500572220	10.95461	8.850752	11552.89443
1500572820	10.97257	8.851846	11942.55403
1500573420	10.990525	8.860169	11605.19085
1500574020	11.026421	8.840716	13886.96226
1500574620	11.062297	8.842936	15000
1500575220	11.080228	8.829631	15729.88713
1500575820	11.107116	8.827706	15292.60117
1500576420	11.133993	8.82579	15093.15698
1500577020	11.16086	8.831088	16512.85097
1500577620	11.205615	8.837543	18218.63714
1500578220	11.259282	8.833781	19003.59615
1500578820	11.2861	8.824702	17906.90946
1500579420	11.295037	8.792909	18514.2607
1500580020	11.295037	8.778564	19700
1500580620	11.303973	8.782724	21400
1500581220	11.348635	8.789211	22700
1500581820	11.393269	8.774203	23700
1500582420	11.420036	8.786727	24700
1500583020	11.446792	8.77057	25350
1500583620	11.464624	8.771756	25150
1500584220	11.491364	8.762794	24300
1500584820	11.518094	8.746699	22503.36808
1500585420	11.553718	8.749093	19858.58632
1500586020	11.598223	8.72711	18300
1500586620	11.624913	8.689781	18700
1500587220	11.678264	8.672122	18650
1500587820	11.722692	8.636262	18150
1500588420	11.758216	8.610509	17650
1500589020	11.784848	8.601784	17150
1500589620	11.802597	8.610032	16300
1500590220	11.829212	8.60132	15650
1500590820	11.829212	8.580268	15150
1500591420	11.84695	8.567482	14650
1500592020	11.838082	8.549401	14150
1500592620	11.838082	8.542423	13300
1500593220	11.820341	8.513373	12300
1500593820	11.802597	8.52608	9200
1500594420	11.793723	8.501167	7300
1500595020	11.784848	8.510981	4935.2863
1500595620	11.784848	8.490176	3551.54217
1500596220	11.775972	8.493046	3549.49133
1500596820	11.767094	8.502852	2969.10361
1500597420	11.758216	8.48494	2584.57111
1500598020	11.767094	8.482071	2428.19456
1500598620	11.740456	8.476846	2317.96191
1500599220	11.731575	8.479716	2058.53065
1500599820	11.722692	8.461864	1811.40443
1500600420	11.713809	8.464731	1838.06535
1500601020	11.696038	8.477376	1991.36564
1500601620	11.687152	8.487166	2054.94168
1500602220	11.678264	8.462407	1763.20969
1500602820	11.669375	8.47218	1581.71035
1500603420	11.651593	8.471023	1436.61342
1500604020	11.633808	8.46987	1129.50013
1500604620	11.616018	8.475625	905.44586
1500605220	11.598223	8.467577	795.21321
1500605820	11.580424	8.466436	682.92972
1500606420	11.562621	8.472199	570.64623
1500607020	11.535908	8.47395	434.26537
1500607620	11.518094	8.47282	292.75741
1500608220	11.482452	8.477475	218.92717
1500608820	11.464624	8.483261	144.07151
1500609420	11.437874	8.471237	82.0336
1500610020	11.420036	8.483931	30.7626
1500610620	11.393269	8.492636	4.61439
1500611220	11.375419	8.491533	0
1500611820	11.339705	8.517026	0
1500612420	11.312907	8.518847	0
1500613020	11.277162	8.516667	0
1500613620	11.241397	8.521434	0
1500614220	11.205615	8.533159	0
1500614820	11.178765	8.541971	0
1500615420	11.151906	8.543844	0
1500616020	11.116076	8.55563	0
1500616620	11.080228	8.574419	0
1500617220	11.05333	8.576325	0
1500617820	11.017448	8.588191	0
1500618420	10.981548	8.607083	0
1500619020	10.945629	8.612009	0
1500619620	10.90969	8.616951	0
1500620220	10.882723	8.632945	0
1500620820	10.837754	8.647955	0
1500621420	10.810758	8.656983	0
1500622020	10.774746	8.669046	0
1500622620	10.747724	8.664013	0
1500623220	10.702663	8.672084	0
1500623820	10.675612	8.688235	0
1500624420	10.639526	8.700391	0
1500625020	10.603419	8.712577	0
1500625620	10.576326	8.707571	0
1500626220	10.540185	8.719791	0
1500626820	10.504023	8.746245	0
1500627420	10.46784	8.75143	0
1500628020	10.431637	8.756633	0
1500628620	10.395414	8.754739	0
1500629220	10.359169	8.774216	0
1500629820	10.331972	8.783509	0
1500630420	10.295692	8.795927	0
1500631020	10.25939	8.801222	0
1500631620	10.232149	8.810572	0
1500632220	10.186723	8.819029	0
1500632820	10.159451	8.842768	0
1500633420	10.123069	8.855335	0
1500634020	10.086666	8.853542	0
1500634620	10.050242	8.858956	0
1500635220	10.022909	8.875629	0
1500635820	9.995564	8.892342	0
1500636420	9.959085	8.905041	0
1500637020	9.922585	8.910536	0
1500637620	9.895194	8.920098	0
1500638220	9.858655	8.925628	0
1500638820	9.822093	8.931177	3.58897
1500639420	9.794658	8.955315	19.48298
1500640020	9.767209	8.95769	75.88108
1500640620	9.730592	8.970572	197.90606
1500641220	9.703114	8.994842	309.16413
1500641820	9.675623	8.989956	392.22315
1500642420	9.648119	8.999676	508.60832
1500643020	9.620603	9.016728	634.73498
1500643620	9.593074	9.026492	693.18392
1500644220	9.565532	9.043612	856.73841
1500644820	9.556348	9.039542	1095.14856
1500645420	9.528789	9.071406	1229.99129
1500646020	9.5196	9.067327	1342.27478
1500646620	9.501217	9.081257	1508.39282
1500647220	9.501217	9.081257	1617.60005
1500647820	9.492023	9.099302	1759.10801
1500648420	9.492023	9.099302	1974.95892
1500649020	9.501217	9.118185	2307.70771
1500649620	9.5196	9.104197	2631.74043
1500650220	9.537977	9.112399	7197.93569
1500650820	9.565532	9.109921	6779.56433
1500651420	9.593074	9.114852	4374.95443
1500652020	9.629777	9.116512	4100.14187
1500652620	9.657289	9.106663	4717.44471
1500653220	9.684788	9.104228	4602.59767
1500653820	9.712274	9.094411	5420.37012
1500654420	9.748903	9.096121	4824.6011
1500655020	9.78551	9.097848	7968.53882
1500655620	9.840377	9.107878	5954.61394
1500656220	9.895194	9.095744	4452.88635
1500656820	9.949962	9.105855	4812.29606
1500657420	10.013795	9.097958	1488.90984
