time,temp,oxy,light
1501031280,12.116523,9.052661,1213.76952
1501031880,12.045805,9.069206,1086.5841
1501032480,11.992723,9.064946,1005.46584
1501033080,11.930746,9.086034,898.30962
1501033680,11.868718,9.099755,793.15632
1501034280,11.815509,9.103045,750.09354
1501034880,11.771139,9.110784,781.1388
1501035480,11.717859,9.129071,733.06872
1501036080,11.66454,9.132464,576.84096
1501036680,11.620078,9.140304,355.5183
1501037280,11.584488,9.122686,159.23214
1501037880,11.54888,9.157403,92.13432
1501038480,11.513255,9.154746,78.11388
1501039080,11.477612,9.174589,67.09782
1501039680,11.44195,9.171958,51.07446
1501040280,11.397348,9.187454,32.04672
1501040880,11.352717,9.202999,18.02628
1501041480,11.316992,9.207938,8.01168
1501042080,11.281249,9.197848,0
1501042680,11.236543,9.205942,0
1501043280,11.200758,9.225999,0
1501043880,11.164954,9.231015,0
1501044480,11.129131,9.236049,0
1501045080,11.093289,9.248653,0
1501045680,11.057428,9.253727,0
1501046280,11.03052,9.263217,0
1501046880,10.985649,9.256369,0
1501047480,10.958712,9.288608,0
1501048080,10.922779,9.286175,0
1501048680,10.895816,9.303331,0
1501049280,10.859849,9.300921,0
1501049880,10.832861,9.310519,0
1501050480,10.79686,9.300545,0
1501051080,10.769846,9.317763,0
1501051680,10.74282,9.335021,0
1501052280,10.715784,9.329451,0
1501052880,10.688736,9.339123,0
1501053480,10.661677,9.341189,0
1501054080,10.625581,9.354127,0
1501054680,10.607525,9.360608,0
1501055280,10.571399,9.365953,0
1501055880,10.553328,9.349552,0
1501056480,10.526212,9.382219,0
1501057080,10.499084,9.376699,0
1501057680,10.471945,9.378838,0
1501058280,10.453846,9.393023,0
1501058880,10.426687,9.379875,0
1501059480,10.399517,9.389689,0
1501060080,10.381397,9.388588,0
1501060680,10.363272,9.410471,0
1501061280,10.336074,9.397334,0
1501061880,10.317936,9.403906,0
1501062480,10.290718,9.421453,0
1501063080,10.281643,9.432435,0
1501063680,10.25441,9.426975,0
1501064280,10.227165,9.444584,0
1501064880,10.208995,9.435825,0
1501065480,10.190819,9.442451,0
1501066080,10.172639,9.449085,0
1501066680,10.154452,9.471146,0
1501067280,10.136261,9.462378,0
1501067880,10.108964,9.464659,0
1501068480,10.090759,9.463617,0
1501069080,10.081654,9.474664,0
1501069680,10.063441,9.481344,0
1501070280,10.045222,9.464884,0
1501070880,10.026998,9.463858,1.00146
1501071480,10.008769,9.462837,11.01606
1501072080,9.999652,9.481603,34.04964
1501072680,9.981414,9.480586,35.0511
1501073280,9.963171,9.502751,63.09198
1501073880,9.954047,9.506112,104.15184
1501074480,9.935796,9.505101,148.21608
1501075080,9.926668,9.50073,194.28324
1501075680,9.917539,9.511835,256.37376
1501076280,9.908408,9.530709,284.41464
1501076880,9.899276,9.518576,301.43946
1501077480,9.899276,9.503094,306.44676
1501078080,9.890143,9.514204,310.4526
1501078680,9.881008,9.517577,302.44092
1501079280,9.881008,9.509834,279.40734
1501079880,9.871872,9.520952,340.4964
1501080480,9.862734,9.524331,481.70226
1501081080,9.862734,9.539848,693.01032
1501081680,9.853595,9.535468,912.33006
1501082280,9.844455,9.538853,1039.51548
1501082880,9.844455,9.531093,1066.5549
1501083480,9.853595,9.543233,1151.679
1501084080,9.853595,9.51996,1290.88194
1501084680,9.853595,9.551005,1473.14766
1501085280,9.862734,9.524331,1567.2849
1501085880,9.881008,9.540847,1547.2557
1501086480,9.899276,9.541851,1634.38272
1501087080,9.926668,9.547254,1680.44988
1501087680,9.972293,9.530383,1789.60902
1501088280,10.026998,9.517957,2055.99738
1501088880,10.063441,9.512286,2490.63102
1501089480,10.127163,9.496604,2293.3434
1501090080,10.18173,9.499799,2132.10834
1501090680,10.25441,9.473183,2217.23244
1501091280,10.317936,9.465428,2295.34632
1501091880,10.372335,9.445612,2486.62518
1501092480,10.453846,9.446802,2581.76388
1501093080,10.526212,9.420565,2627.83104
1501093680,10.598496,9.402129,2805.08946
1501094280,10.661677,9.402374,3031.41942
1501094880,10.73381,9.391758,3366.90852
1501095480,10.805862,9.358259,3808.55238
1501096080,10.895816,9.349033,4321.2999
1501096680,11.120172,9.315016,4811.01384
1501097280,11.138088,9.301064,4532.60796
1501097880,11.245487,9.278358,4571.6649
1501098480,11.325925,9.242531,4654.78608
1501099080,11.44195,9.232177,4796.9934
1501099680,11.54888,9.217553,5391.652386
1501100280,11.620078,9.1853,7093.9274
1501100880,11.700091,9.18017,7714.672246
1501101480,11.753383,9.154273,8315.10176
1501102080,11.82438,9.159834,8875.186743
1501102680,11.913029,9.121918,9314.285714
1501103280,12.010421,9.088676,9514.285714
1501103880,12.107687,9.085395,10000
1501104480,12.187175,9.058452,10470.79961
1501105080,12.266581,9.02425,9943.762803
1501105680,12.354715,9.016826,9343.762486
1501106280,12.433951,9.005053,8799.843929
1501106880,12.521898,8.983055,8107.709291
1501107480,12.592186,8.967024,7191.927097
1501108080,12.67996,8.937921,5579.086711
1501108680,12.715043,8.955699,4299.553911
1501109280,12.741346,8.946994,3941.74656
1501109880,12.758876,8.926522,3510.1173
1501110480,12.758876,8.926522,3338.86764
1501111080,12.750112,8.922085,3159.6063
1501111680,12.741346,8.910331,2872.18728
1501112280,12.723812,8.930763,2549.71716
1501112880,12.706274,8.914573,2296.34778
1501113480,12.688732,8.927687,2124.09666
1501114080,12.671187,8.940823,2007.9273
1501114680,12.636085,8.945105,1898.76816
1501115280,12.600968,8.942059,1753.55646
1501115880,12.57462,8.943455,1680.44988
1501116480,12.539476,8.94044,1749.55062
1501117080,12.504317,8.952115,1312.91406
1501117680,12.451548,8.962326,1186.7301
1501118280,12.389941,8.982881,1054.53738
1501118880,12.319474,8.984351,986.4381
1501119480,12.266581,9.00208,882.28626
1501120080,12.204828,9.015452,771.1242
1501120680,12.143025,9.021489,711.0366
1501121280,12.090011,9.031986,713.03952
1501121880,12.045805,9.024738,695.01324
1501122480,12.001572,9.047108,549.80154
1501123080,11.966168,9.044296,344.50224
1501123680,11.921888,9.059329,166.24236
1501124280,11.886445,9.063965,106.15476
1501124880,11.850986,9.076043,86.12556
1501125480,11.806637,9.083745,66.09636
1501126080,11.771139,9.08844,45.0657
1501126680,11.735624,9.085714,22.03212
1501127280,11.691205,9.093483,8.01168
1501127880,11.65565,9.120587,0
1501128480,11.620078,9.12536,0
1501129080,11.575588,9.118292,0
1501129680,11.539976,9.145509,0
1501130280,11.504346,9.142863,0
1501130880,11.459783,9.158281,0
1501131480,11.424113,9.155668,0
1501132080,11.379499,9.171147,0
1501132680,11.343788,9.176061,0
1501133280,11.308058,9.196012,0
1501133880,11.27231,9.193453,0
1501134480,11.227598,9.194034,0
1501135080,11.191808,9.221598,0
1501135680,11.164954,9.200902,0
1501136280,11.129131,9.228507,0
1501136880,11.093289,9.210965,0
1501137480,11.057428,9.253727,0
1501138080,11.021548,9.258819,0
1501138680,10.985649,9.26393,0
1501139280,10.94973,9.269059,0
1501139880,10.922779,9.271025,0
1501140480,10.886826,9.276186,0
1501141080,10.859849,9.270608,0
1501141680,10.832861,9.272606,0
1501142280,10.79686,9.300545,0
1501142880,10.769846,9.30257,0
1501143480,10.74282,9.297016,0
1501144080,10.706769,9.317458,0
1501144680,10.679718,9.304326,0
1501145280,10.652655,9.321583,0
1501145880,10.625581,9.32366,0
1501146480,10.598496,9.340968,0
1501147080,10.571399,9.335452,0
1501147680,10.54429,9.33756,0
1501148280,10.51717,9.339678,0
1501148880,10.480993,9.367935,0
1501149480,10.462896,9.366818,0
1501150080,10.426687,9.379875,0
1501150680,10.399517,9.359132,0
1501151280,10.381397,9.3733,0
1501151880,10.345141,9.386399,0
1501152480,10.327006,9.400619,0
1501153080,10.290718,9.406113,0
1501153680,10.263489,9.408331,0
1501154280,10.24533,9.422598,0
1501154880,10.218081,9.424834,0
1501155480,10.190819,9.427082,0
1501156080,10.163546,9.43702,0
1501156680,10.136261,9.423929,0
1501157280,10.108964,9.456955,0
1501157880,10.090759,9.448218,2.00292
1501158480,10.063441,9.465915,12.01752
1501159080,10.036111,9.45282,23.03358
1501159680,10.017884,9.467199,38.05548
1501160280,9.990534,9.484953,53.07738
1501160880,9.972293,9.491661,67.09782
1501161480,9.944922,9.486282,76.11096
1501162080,9.926668,9.477563,83.12118
1501162680,9.908408,9.492,96.14016
1501163280,9.899276,9.510831,103.15038
1501163880,9.871872,9.513207,115.1679
1501164480,9.853595,9.535468,118.17228
1501165080,9.835313,9.518973,133.19418
1501165680,9.82617,9.530106,171.24966
1501166280,9.807879,9.521374,344.50224
1501166880,9.798732,9.532511,653.95338
1501167480,9.798732,9.532511,829.20888
1501168080,9.780433,9.531536,1018.48482
1501168680,9.780433,9.547059,1078.57242
1501169280,9.780433,9.547059,1060.54614
1501169880,9.780433,9.547059,1134.65418
1501170480,9.789583,9.528146,1240.80894
1501171080,9.798732,9.555811,1412.0586
1501171680,9.807879,9.544645,1541.24694
1501172280,9.82617,9.537864,1510.20168
1501172880,9.844455,9.546621,1575.29658
1501173480,9.881008,9.525327,1639.39002
1501174080,9.917539,9.511835,1859.71122
1501174680,9.954047,9.521604,2515.66752
1501175280,10.008769,9.516924,2402.50254
1501175880,10.063441,9.496801,2443.5624
1501176480,10.136261,9.485533,2271.31128
1501177080,10.199908,9.47767,2157.14484
1501177680,10.25441,9.457752,2256.28938
1501178280,10.327006,9.454408,2483.6208
1501178880,10.408575,9.424754,2671.89528
1501179480,10.490039,9.402935,2576.75658
1501180080,10.571399,9.3889,2746.00332
1501180680,10.643632,9.385868,2951.30262
1501181280,10.715784,9.367598,3261.75522
1501181880,10.787856,9.349424,3679.36404
1501182480,10.877835,9.332556,3228.70704
